,id,x,y,z,rx,ry,rz
0,101807,0.0028183022583931515,-0.011303015331328218,0.09718924746527313,0.484133,3.0685700000000002,0.159137
1,101808,-0.004921346323549669,-0.01923232007161571,0.09494158708444661,-0.467811,-3.0833169999999996,-0.190381
2,101809,-0.052152827448288544,-0.010629081006859227,0.16270781285962993,0.5013310000000001,4.889809,0.363302
3,101811,0.0008387119256811218,-0.001597545208499503,0.0968617133179989,0.296004,3.0751180000000002,0.25407399999999997
4,101812,0.0026408710391666915,-0.006373920228251218,0.09912347965391649,-0.495083,-3.0853,-0.23327399999999998
5,101814,-0.01581936881421543,-0.009574474437341876,0.08842280980516729,0.361192,3.03927,0.257728
6,101815,-0.0009300247701146116,-0.020088664560556052,0.07950859598583362,0.21943200000000002,3.0589020000000002,0.191947
7,101817,0.005776626399453242,-0.013057905546802948,0.08546699695559556,0.43074799999999996,3.090141,0.14810399999999999
8,101818,0.0027722258526793326,-0.020374552167478962,0.09559295173148269,0.342951,3.045585,0.125224
9,101822,-0.011518147811021558,-0.03871519581091103,0.13735821537996884,0.35635300000000003,2.9241479999999997,0.41195699999999996
10,101823,-0.006491473445414271,0.002822369715885123,0.07395769859441866,0.08010199999999999,3.035577,0.150078
11,101824,-0.010573433466484226,-0.016979700814488838,0.08496542116495218,0.142246,3.0637849999999998,0.220568
12,101825,0.013379200375680234,-0.010859852054602988,0.07516521568887369,0.153539,3.041618,0.170706
13,101826,-0.010678282221803045,-0.03361754631685025,0.09714239128171377,0.033276,2.988495,0.28004
14,101827,-0.002145603909146407,-0.017792538044832273,0.07546278954511645,0.040023,3.0149369999999998,0.200376
15,101828,0.0035275111252815903,-0.015160150472075862,0.09122737471142056,0.250374,3.051291,0.198536
16,101829,-0.011823788152872884,-0.012934407827510336,0.09064863000759797,-1.065191,-2.88593,-0.163824
17,101830,0.0005505691018961134,-0.010836786359182836,0.09598481533238004,-1.04944,-2.862956,-0.206877
18,101831,0.002579946749772734,-0.012094723482159439,0.0958732862811193,-0.773794,-3.014208,-0.22700399999999998
19,101832,-0.0031780363561592197,-0.00124361309026365,0.09145070793298954,-0.86595,-2.9295430000000002,-0.27889200000000003
21,101834,0.0011396681486241737,-0.028309834201699045,0.08674243493023612,0.258479,2.998657,0.218322
22,101835,-0.0002155168899195918,-0.02273070517012831,0.09189914550553938,0.239911,3.0307619999999997,0.259313
23,101836,-0.005341844301446909,-0.020412588958088333,0.09275448888034651,-0.760076,-3.005704,-0.389437
24,101837,-0.007721879507955911,-0.020553783720868152,0.10054549031626633,0.768302,3.0142349999999998,0.24863400000000002
25,101838,-0.0063103511413835625,-0.016656987008909663,0.09839646149099723,0.35329699999999997,3.090348,0.20256400000000002
26,101839,-0.00678363316893565,-0.011428222659917012,0.08814316050329567,0.204415,3.0533200000000003,0.200808
27,101840,-0.007084119371213386,-0.014932058983346801,0.09507170137917964,0.38116300000000003,3.095787,0.229427
28,101841,-0.007460304464322037,-0.01855037005743984,0.08944542194332561,0.131936,3.064156,0.22236799999999998
29,101843,-0.01241652147757892,-0.019932266749044737,0.08572440481863766,-0.081081,3.0224189999999997,0.179147
30,101844,0.01233135691387156,-0.008708288822124686,0.08692999757892865,0.220992,3.094235,0.208317
31,101845,-0.0006225761250576271,-0.013792570958642595,0.08802303028900922,0.11599300000000001,3.07741,0.171943
32,101846,-0.012119229396480495,-0.010244177589272811,0.08586497920825303,0.262442,3.076045,0.222152
33,101847,-0.004865572663304796,-0.010472206116764974,0.08297794416850235,0.032069,3.045464,0.229825
34,101848,-0.007388995189952747,-0.02066575624566399,0.0720782654819315,0.369479,3.073699,0.22123
35,101849,-0.005460924834791727,-0.02193573269131685,0.08273968780345875,0.108972,3.052527,0.296547
36,101850,-0.0003396749235307691,-0.012764267342020168,0.07838841096935995,-0.063672,3.023657,0.253406
37,101851,-0.00690543006042639,-0.021354941574152103,0.07605085281253812,0.176603,3.059054,0.261585
38,101852,0.0076433076573959695,-0.018234706843560926,0.0872929644219467,-0.254257,-3.058023,-0.25906399999999996
39,101853,0.003015388787013202,-0.012219125773591948,0.08305308932404268,0.158914,3.048542,0.179199
40,101854,-0.014899476231186027,-0.032985117055979916,0.08512993426098894,0.006490000000000001,3.039402,0.205104
41,101855,-0.0028485861603145773,-0.025124448964200574,0.10147038591281954,-1.961552,2.397742,0.103844
42,101856,0.01406099830314685,0.0010091921011115869,0.09989684666766371,-0.988931,2.905153,0.198938
43,101857,0.019676486740464183,-0.02350537321524991,0.09788340628018077,-1.821534,2.523688,0.12030199999999999
44,101858,0.015210201751482518,-0.008581431772276755,0.10570797410832802,-2.083592,2.275777,0.08440700000000001
45,101859,0.022231549401435395,-0.0032630143983555532,0.0997074923285507,-1.5520040000000002,2.6740470000000003,0.204671
46,101860,0.025646041727939353,0.00440167513533894,0.09596455698100692,-1.3931719999999999,2.753909,0.21209899999999998
47,101862,0.011174641977807525,-0.0059170698603959885,0.09362198904661179,-1.722619,2.575742,0.110571
48,101863,0.007950232697937713,-0.0098264374888724,0.1061318732226098,-1.910239,2.434098,0.13747
49,101864,0.04250327356295215,-0.06604964052430218,0.18522364929466162,1.537354,-2.621409,-0.550035
50,101865,-0.031406861297307645,-0.04135384159021442,0.1566647998107877,0.608117,-0.9716889999999999,-0.045794999999999995
53,101869,0.003020186632170842,-0.01405732803489468,0.1159811931954523,-1.7521360000000001,2.5104919999999997,0.230246
54,101870,-0.034935674673548335,-0.04332147808930117,0.11654941806521604,1.172773,-1.9993889999999999,-0.047572
55,101871,0.000162913613971246,-0.015196377952396083,0.10823192466965778,1.2849110000000001,-2.802755,-0.026844
56,101872,0.061920798594998105,-0.0901343608737174,0.17419135241579844,1.138654,-2.7235400000000003,-0.587937
58,102877,0.007720645585590333,-0.006676072903634592,0.10867693341074663,-0.784586,-2.964927,-0.038098
59,102878,0.018328188238219884,-0.0065315016797552914,0.10341111567904471,-2.109818,2.261762,0.031935000000000005
60,102879,-0.003770429256417108,0.0018466679860919119,0.09460419658895991,-0.6071850000000001,-3.028786,-0.03159
61,102880,-0.005981301520467737,-0.021488133932731326,0.10301929849611116,-1.280247,-2.799052,-0.094567
62,102881,0.00048176350856180797,-0.01330744045617321,0.11052892762357248,-2.177597,2.197575,0.076789
63,102882,-0.029302210075577553,-0.021347377737498213,0.09201822862343784,0.79907,-2.449684,0.007645
64,102883,-0.014870737262276966,-0.008944224030338366,0.09921569178034582,-0.387061,-3.0885990000000003,-0.101463
65,102884,-0.014456141199813902,-0.008421046130992753,0.09004078874451837,-1.0194590000000001,-2.867515,-0.09144
66,102885,0.0028041562728864412,-0.010611523998314084,0.08587942275080909,-2.306235,2.043838,0.055955
67,102886,0.000391002942139034,-0.01453528913707209,0.09285986739365447,1.046283,-2.838993,-0.051791
68,102887,-0.00798793863951038,-0.00499884825242808,0.1028910867689111,0.403673,-3.079302,-0.079449
69,102888,-0.01479891300740696,-0.009993902707973464,0.09169003940804882,-0.429277,-3.1099919999999996,-0.089684
70,102889,0.005275108663868104,-0.012213759872331354,0.10366796444928097,-0.9793360000000001,-2.9066099999999997,-0.098048
71,102890,0.006903564021606246,-0.0075061337675329425,0.09307191490446998,-2.139022,2.204081,0.13716099999999998
72,102891,0.009546373175373442,-0.016316189724308608,0.10763736030462295,-1.223611,2.8249419999999996,0.11243299999999999
73,102892,-0.006009796744794514,-0.01468073611495376,0.10292545681549525,-0.15448499999999998,-3.0701490000000002,-0.094503
74,102893,-0.007237800410645471,-0.01970688805276614,0.09193298592541266,-0.9663280000000001,-2.90728,-0.115138
75,102894,0.007947011123716988,-0.0005518079764219863,0.09567757415350475,-1.987569,2.377644,0.1221
76,102895,-0.044489696652954824,-0.026360265759279675,0.1085574201806043,0.6656310000000001,-2.120464,-0.010134
77,102896,-0.013937804625707435,-0.006581055225878894,0.0965969492421926,-0.272913,-3.072161,-0.087063
78,102897,-0.009670171964200714,-0.016386748116654172,0.09061726303773904,-0.923243,-2.9148240000000003,-0.11788699999999999
79,102898,-0.001691239355104327,-0.01944992030614794,0.09185916370375727,-1.425781,-2.706829,-0.10255399999999999
80,102900,-0.006197700093854998,-0.01890378023077205,0.10337255933381029,1.104403,-2.8658040000000002,-0.097252
81,102901,0.0019655177046042863,-0.006509456397484679,0.10178486387663577,-0.03377,-3.116175,-0.111845
84,103033,0.002476173128190393,-0.014809516666947714,0.1718025352360108,-0.876101,-6.015880999999999,-0.29489899999999997
85,103034,-0.016198615226323033,-0.008443343552863886,0.07581273040643477,0.331409,3.225218,0.220498
86,103035,-0.01414995530969416,-0.006096638193596805,0.07645138930940178,-0.265144,-3.092767,-0.20986100000000002
87,103036,-0.011030443191371374,-0.011362422183558263,0.07364259102669352,0.308296,3.127639,0.229382
88,103037,-0.0042124581163762425,-0.0075534712555863515,0.07519044474929043,0.168456,3.043717,0.202506
89,103038,-0.0037561658673025064,-0.004451331141038049,0.07491328491645391,0.17060699999999998,3.0677630000000002,0.265839
90,103039,-0.003956722710108555,-0.0015560099979605932,0.07477178068827534,0.21918,3.062328,0.260463
91,103040,-0.008544242290405842,0.00042604051483037704,0.07450707037273874,0.061311000000000004,3.011666,0.31567399999999995
92,103041,-0.003397681334941661,-0.008548392356393816,0.07185680941224357,0.142957,3.063913,0.299774
93,103042,-0.002030177631427976,-0.01927085809140313,0.07345000271201985,0.195696,3.052448,0.25354099999999996
94,103043,-0.0035620796004655463,-0.0020150923448477923,0.0707080084313118,0.035907999999999995,3.034235,0.260201
95,103044,-0.000980965966967689,0.0012115851016530578,0.07721673984412164,-0.044357,3.063604,0.269983
96,103045,0.00028966917191234395,0.0031028922614107085,0.07976838269441536,0.014768,3.020826,0.30643899999999996
97,103046,0.001952388746550749,0.00032573735025893946,0.07406415802972496,0.050220999999999995,3.024651,0.326642
98,103047,0.0012939583987497541,-0.006525554741919796,0.08163784270911732,0.205394,3.064491,0.357193
99,103048,-0.0003056092235726778,-0.004924478744219838,0.08061862318581964,0.223978,3.0278810000000003,0.308183
100,103049,-0.002784924690054163,-0.007832707001340837,0.07674251734534662,0.274215,3.065274,0.349771
101,103050,-0.000892326504426934,-0.006118422038461507,0.08160146475326532,0.298714,3.047036,0.31749499999999997
102,103051,-0.0008352659475322271,-0.005644969108596479,0.08292991983330603,0.24392199999999997,3.044644,0.332768
103,103052,0.001965870782860792,-0.00425179471392031,0.08055486831271914,0.274411,3.041056,0.244248
104,103053,-0.002459866543071494,-0.004922958488626611,0.08024143617291346,0.23725,3.051823,0.275899
105,103054,0.0026624382257277096,0.0030144433686209162,0.08096707739309922,0.24296199999999998,3.0150919999999997,0.243223
106,103055,-0.00889580487593479,-0.0006369461196632457,0.07818758907592344,0.157599,3.0332689999999998,0.265442
107,103056,-0.00783598469929031,-0.011054526360566147,0.08143173741694201,0.29627600000000004,2.98676,0.258687
108,103057,-0.002722708586980192,-0.006188390471454698,0.07727593514431289,0.206227,3.071788,0.263719
109,103058,-0.006575620753632237,-0.0020037873333912885,0.07915060382983885,0.20600700000000002,3.05763,0.32068
110,103059,-0.0053124858969011615,-0.009247513283696685,0.07881950591047682,0.204287,3.086754,0.23846199999999998
111,103060,-0.00693971962838454,-0.007310140837222371,0.08100617943953171,-0.11796,-3.155335,-0.295977
112,103061,-0.0031144632965187245,-0.0030619050929748294,0.08047265370567244,0.10191900000000001,3.06607,0.315634
113,103062,-0.0016238184344108857,-0.005507806945186797,0.07670862123619075,0.195914,3.099497,0.30145900000000003
114,103063,0.004432806798808752,-0.006544269161435051,0.07566240793336043,-0.22774,-3.088524,-0.30997600000000003
115,103064,0.0007488012661215806,-0.0029428149355738027,0.07916709773496972,-0.15525999999999998,-3.0905560000000003,-0.305621
116,103065,-0.0005867025585250908,-0.005187565256087601,0.0762931540486261,-0.114343,-3.115153,-0.40985200000000005
117,103066,0.0004019312516458267,0.003717887863124497,0.07658307000013284,-0.22688899999999998,-3.1479619999999997,-0.317875
118,103067,0.0012264280765632682,0.004708076929447429,0.07640994550909365,0.147545,3.075463,0.415541
119,103068,0.0021058988616965884,0.003798548355530143,0.07632163487200777,0.262748,3.0800970000000003,0.293427
120,103069,-0.0015976188462833922,-0.0013337326737615906,0.075891953423999,-0.179402,-3.103364,-0.298846
121,103070,-0.004084538973205246,-0.007194888709528009,0.07774043255117355,-0.082978,-3.1044810000000003,-0.309659
122,103071,-0.00042809168123408056,-0.006457689241036577,0.07702055410344436,-0.19125999999999999,-3.10982,-0.259813
123,103072,-0.0011938547374233807,-0.006392146812377443,0.08023172077608173,-0.181566,-3.0642419999999997,-0.281906
124,103073,-0.003265406103285497,-0.010007423628765522,0.0792661312007849,-0.18625899999999998,-3.060404,-0.288669
125,103074,-0.005714410538406798,-0.012514863375811862,0.08056518224946521,0.160709,3.1135099999999998,0.335525
126,103075,-0.002790147798002661,-0.0038121535515875885,0.0783684895916558,-0.263875,-3.086098,-0.329295
127,103076,-0.003440557791510919,-0.006911261459619421,0.07705467927465554,0.179322,3.094911,0.33668899999999996
128,103077,-0.005064149143767943,-0.004143386127344982,0.08021168577466986,-0.261442,-3.064348,-0.340033
129,103078,0.006855105287409625,-0.0066659265696014155,0.08168688321233365,-0.258063,-3.225005,-0.30726
130,103079,0.005290702676043353,-0.007044682906250446,0.07828361143547112,-0.336307,-3.074894,-0.288492
131,103080,0.005567418150255317,-0.015086563617897019,0.07960654032748365,0.11605599999999999,-3.1283790000000002,-0.02882
132,103081,-0.004755225995916047,-0.0037357682302789214,0.08481513116396025,-1.904357,-2.313418,-0.03482
133,103082,0.038027152371434836,0.006356382949763496,0.09020324099059757,-0.665845,2.5477220000000003,0.042789999999999995
134,103083,0.003152074250600233,-0.0005185963947314893,0.0810894925531211,-0.7294729999999999,-3.015892,-0.202329
135,103084,0.0039876756090554836,-0.021039351687093734,0.07871224531257831,-2.0347459999999997,2.265939,0.020861
136,103085,-0.0007761186131107641,-0.008502449295899725,0.08325983975654852,-0.396267,3.022946,0.13263699999999998
137,103086,-0.011962778072318617,-0.008218690556494688,0.07966739191742216,-0.7372270000000001,-2.987677,-0.141677
138,103087,3.4102385821729864e-05,-0.012513154100643742,0.08215735194031798,-1.8581,2.4620189999999997,0.026052
139,103088,-0.002782063282278351,0.0021687139588400842,0.08016055254395715,-0.09811900000000001,-3.098773,-0.143995
140,103089,0.0005485381700785336,-0.005340283349236556,0.08256817302696773,-1.301393,-2.7259700000000002,-0.203961
141,103090,0.003822162884941995,-0.01752036254323306,0.08791610623197127,-1.133134,2.604857,0.087732
142,103091,-0.004327580104306568,-0.004498918740575528,0.08525540021985326,-0.081011,-3.113102,-0.1354
143,103092,-0.014910887400169898,-0.0031185075845009246,0.07666474058634881,-1.67977,-2.5237439999999998,-0.183918
144,103094,0.029067004478733064,0.003538825829049748,0.09233743344420782,0.10634500000000001,-3.8456230000000002,-0.17993399999999998
145,103095,-0.015967112278164577,0.0016101754102064475,0.08195105153641488,-1.094734,-2.8320119999999998,-0.112142
146,103097,-0.00815543640081632,-0.0077917297218787086,0.07291706530395092,-0.092088,-3.109915,-0.062390999999999995
147,103098,0.012262276491667296,-0.002972847768961274,0.07793632649643897,-1.123094,2.791084,0.041675
148,103099,0.011462241435465141,-0.0006992691700782355,0.07893150537134352,-0.135233,-3.100899,-0.092664
149,103100,0.0005158193405576961,-0.004447989247697182,0.07832790950891944,-1.415956,-2.690644,-0.214836
150,103101,-0.0006616956387969718,-0.011970568350724627,0.07878724745580558,-1.146509,2.855775,0.06879500000000001
151,103102,-0.014273136931814782,-0.012244017819480294,0.08155854693227105,-0.490579,-3.045075,-0.089818
152,103103,-0.004267272966610879,-0.0042731522847940535,0.07792507528692073,-1.846513,2.482585,0.022647
153,103104,0.012796601850353966,-0.004886745613914339,0.08694567383267278,-0.109384,3.118186,0.154845
154,103105,-0.012018926841497298,0.016274846759720036,0.08257986334948045,-0.8780209999999999,-2.937884,-0.194935
155,103107,-0.025054540407980344,-0.005018820739280925,0.08103780009912101,0.61558,-2.752745,-0.06321900000000001
156,103108,-0.008584266089762123,-0.008095794516364444,0.07686372019017725,0.241473,3.123797,0.13533599999999998
157,103109,-0.012692124788218795,-0.008746431706745989,0.07902156472756085,-1.416988,-2.656654,-0.151259
158,103110,-0.016881008327443325,-0.012178333868371579,0.08643239592533025,0.56347,-2.723745,-0.077538
159,103111,-0.0019519648365916792,-0.006181196712940245,0.07936720923819487,-0.596993,-2.988268,-0.165784
160,103112,0.0012443714692823944,-0.008881129607886677,0.08057454755790505,0.65925,-2.985523,-0.10066599999999999
161,103113,-0.029575418812774007,-0.01943424338839636,0.16337678570933842,0.253341,-0.625887,0.009118000000000001
162,103114,0.0003097352033462927,-0.00513812042535256,0.08480237768110975,-0.5645859999999999,-2.992177,-0.284196
163,103115,-0.0035065466543837986,-0.011580914285710323,0.07510036039260323,0.5852430000000001,-2.986806,-0.026232
164,103116,-0.0034176435275004493,-0.005647043328245011,0.07825786765527906,0.586785,-2.9128060000000002,-0.026137999999999998
165,103117,-0.02014463648211789,0.0008064250259846488,0.08264011843562367,-0.578326,-3.0680330000000002,-0.21425500000000003
166,103118,0.016680566517234062,-0.0032499454961633246,0.08426811525327292,-0.7194189999999999,2.737893,0.03578
167,103120,-0.0032733690682052834,-0.00877279039641055,0.08018472609171984,-0.111122,-3.048106,-0.166327
168,103121,0.0005230833862497307,-0.010549205221969978,0.075638114322612,0.397717,-3.052052,-0.08630800000000001
169,103122,0.024148086977140208,-0.007979406903090994,0.07591873888711471,-0.308186,3.0919,0.05976
170,103123,-0.0022272440863515494,-0.0014825895050969654,0.07556904746822041,-1.023198,-2.8822810000000003,-0.17307899999999998
171,103124,0.011872267365608846,-0.013627236743685617,0.08342747578049568,0.31771900000000003,-3.183886,-0.123136
172,103125,0.016871484546287854,0.0009600331443964968,0.07955672849524625,0.46748900000000004,-3.119845,-0.08354
173,103126,-0.008052497093640159,-0.003602591864085604,0.08253450299587209,-0.681146,-2.99051,-0.23080599999999998
174,103127,0.00449966515870155,-0.005378961761386795,0.08414547490208964,0.45031400000000005,-3.386271,-0.17943399999999998
175,103128,0.006422391288719267,0.00494286360536337,0.07694016639431325,-0.359852,3.110388,0.11404700000000001
176,103129,-0.005813135075885055,-0.004746551767051252,0.07556771642817922,0.574318,-2.9737,-0.103046
177,103130,0.019957822197282277,0.014969843247462693,0.07672136716389147,0.593957,-2.995158,-0.100178
178,103131,0.01058796882405393,-0.008177596509803441,0.08225266690623306,-1.081108,2.848509,0.050647000000000005
179,103132,0.0100074103586427,-0.006414062057854093,0.0844604262922036,0.660737,-2.925268,-0.075852
180,103133,-0.005942413913701041,0.009415667079425089,0.08201221699429066,-1.2018,-2.80498,-0.28757699999999997
181,103134,0.011271861369237404,-0.015250136296982447,0.084489502804444,-0.786145,2.958743,0.086922
182,103135,0.0005125443910150868,-0.022895277694368096,0.08000327492914627,-0.686601,-2.969106,-0.072542
183,103136,0.02983869601935231,0.00891284529313574,0.08125192124235484,-0.484483,2.564779,0.035124
184,103137,0.008196707488053678,-0.0218585967579831,0.07160179512492006,-0.8217770000000001,-3.0227209999999998,-0.135728
185,103138,0.010946250491997017,-0.012054602609859159,0.06829748133543503,-1.238089,-2.8252669999999998,-0.125073
